# E [eV], Intensity
6.973403826437375756e+03,5.050201784000000041e-10
6.974699963392493373e+03,5.232458410000000509e-10
6.975996100347610081e+03,5.425406972000000225e-10
6.977292237302727699e+03,5.629051289000000133e-10
6.978588374257845317e+03,5.843397071999999555e-10
6.979884511212962934e+03,6.068454840000000331e-10
6.981180648168079642e+03,6.304242835000000260e-10
6.982476785123197260e+03,6.550789880999999696e-10
6.983772922078314878e+03,6.808138149999999849e-10
6.985069059033432495e+03,7.076345786000000162e-10
6.986365195988549203e+03,7.355489356000000276e-10
6.987661332943666821e+03,7.645666093999999646e-10
6.988957469898784439e+03,7.946995921000000130e-10
6.990253606853901147e+03,8.259623210000000507e-10
6.991549743809018764e+03,8.583718287000000422e-10
6.992845880764136382e+03,8.919478686999999812e-10
6.994142017719254000e+03,9.267130122999999565e-10
6.995438154674370708e+03,9.626927215000000485e-10
6.996734291629488325e+03,9.999153966999999402e-10
6.998030428584605943e+03,1.038412401999999962e-09
6.999326565539722651e+03,1.078218071999999999e-09
7.000622702494840269e+03,1.119369695000000019e-09
7.001918839449957886e+03,1.161907489000000015e-09
7.003214976405075504e+03,1.205874555999999961e-09
7.004511113360192212e+03,1.251316838000000077e-09
7.005807250315309830e+03,1.298283051000000075e-09
7.007103387270427447e+03,1.346824631000000000e-09
7.008399524225545065e+03,1.396995666999999945e-09
7.009695661180661773e+03,1.448852840999999996e-09
7.010991798135779391e+03,1.502455366000000078e-09
7.012287935090897008e+03,1.557864937000000088e-09
7.013584072046013716e+03,1.615145681000000086e-09
7.014880209001131334e+03,1.674364116999999910e-09
7.016176345956248952e+03,1.735589128999999905e-09
7.017472482911366569e+03,1.798891943999999912e-09
7.018768619866483277e+03,1.864346123999999937e-09
7.020064756821600895e+03,1.932027564999999799e-09
7.021360893776718513e+03,2.002014509999999821e-09
7.022657030731835221e+03,2.074387567000000007e-09
7.023953167686952838e+03,2.149229749999999952e-09
7.025249304642070456e+03,2.226626510999999898e-09
7.026545441597188074e+03,2.306665797999999870e-09
7.027841578552304782e+03,2.389438111999999915e-09
7.029137715507422399e+03,2.475036574999999907e-09
7.030433852462540017e+03,2.563557003999999833e-09
7.031729989417657634e+03,2.655097997999999956e-09
7.033026126372774343e+03,2.749761017999999928e-09
7.034322263327891960e+03,2.847650487000000065e-09
7.035618400283009578e+03,2.948873882000000183e-09
7.036914537238126286e+03,3.053541842000000000e-09
7.038210674193243904e+03,3.161768272000000172e-09
7.039506811148361521e+03,3.273670453999999838e-09
7.040802948103479139e+03,3.389369157000000206e-09
7.042099085058595847e+03,3.508988759000000012e-09
7.043395222013713465e+03,3.632657364999999890e-09
7.044691358968831082e+03,3.760506922999999832e-09
7.045987495923948700e+03,3.892673358000000153e-09
7.047283632879065408e+03,4.029296691999999960e-09
7.048579769834183026e+03,4.170521251999999650e-09
7.049875906789300643e+03,4.316491259999999668e-09
7.051172043744417351e+03,4.467361056999999899e-09
7.052468180699534969e+03,4.623292363999999598e-09
7.053764317654652586e+03,4.784447526000000142e-09
7.055060454609770204e+03,4.950993838999999671e-09
7.056356591564886912e+03,5.123103693000000363e-09
7.057652728520004530e+03,5.300954714999999995e-09
7.058948865475122147e+03,5.484729921999999881e-09
7.060245002430238856e+03,5.674617874000000408e-09
7.061541139385356473e+03,5.870812831999999790e-09
7.062837276340474091e+03,6.073514922000000346e-09
7.064133413295591708e+03,6.282930300000000029e-09
7.065429550250708417e+03,6.499271323999999896e-09
7.066725687205826034e+03,6.722756733000000207e-09
7.068021824160943652e+03,6.953611820999999922e-09
7.069317961116061269e+03,7.192068628000000383e-09
7.070614098071177978e+03,7.438366128999999598e-09
7.071910235026295595e+03,7.692750426000000215e-09
7.073206371981413213e+03,7.955474952999999577e-09
7.074502508936529921e+03,8.226800677000000684e-09
7.075798645891647539e+03,8.506996314000000588e-09
7.077094782846765156e+03,8.796338539999999539e-09
7.078390919801882774e+03,9.095112216999999968e-09
7.079687056756999482e+03,9.403610618000000351e-09
7.080983193712117099e+03,9.722135664000000798e-09
7.082279330667234717e+03,1.005099816000000021e-08
7.083575467622351425e+03,1.039051804999999960e-08
7.084871604577469043e+03,1.074102465000000044e-08
7.086167741532586660e+03,1.110285692000000061e-08
7.087463878487704278e+03,1.147636374000000080e-08
7.088760015442820986e+03,1.186190417000000033e-08
7.090056152397938604e+03,1.225984771999999937e-08
7.091352289353056221e+03,1.267057463999999918e-08
7.092648426308173839e+03,1.309447625000000010e-08
7.093944563263290547e+03,1.353195516999999945e-08
7.095240700218408165e+03,1.398342569000000041e-08
7.096536837173525782e+03,1.444931408000000041e-08
7.097832974128642491e+03,1.493005887000000141e-08
7.099129111083760108e+03,1.542611124000000035e-08
7.100425248038877726e+03,1.593793530000000106e-08
7.101721384993995343e+03,1.646600852000000074e-08
7.103017521949112052e+03,1.701082199000000059e-08
7.104313658904229669e+03,1.757288087999999835e-08
7.105609795859347287e+03,1.815270475000000150e-08
7.106905932814464904e+03,1.875082795999999905e-08
7.108202069769581612e+03,1.936780007999999959e-08
7.109498206724699230e+03,2.000418626000000047e-08
7.110794343679816848e+03,2.066056769000000018e-08
7.112090480634933556e+03,2.133754197999999881e-08
7.113386617590051173e+03,2.203572360999999900e-08
7.114682754545168791e+03,2.275574441999999968e-08
7.115978891500286409e+03,2.349825397000000010e-08
7.117275028455403117e+03,2.426392012000000043e-08
7.118571165410520734e+03,2.505342942999999849e-08
7.119867302365638352e+03,2.586748768999999940e-08
7.121163439320755060e+03,2.670682038999999968e-08
7.122459576275872678e+03,2.757217328999999948e-08
7.123755713230990295e+03,2.846431288999999996e-08
7.125051850186107913e+03,2.938402699999999895e-08
7.126347987141224621e+03,3.033212531000000328e-08
7.127644124096342239e+03,3.130943989999999892e-08
7.128940261051459856e+03,3.231682589000000171e-08
7.130236398006577474e+03,3.335516198999999711e-08
7.131532534961694182e+03,3.442535111999999965e-08
7.132828671916811800e+03,3.552832102000000165e-08
7.134124808871929417e+03,3.666502493000000192e-08
7.135420945827046125e+03,3.783644220000000079e-08
7.136717082782163743e+03,3.904357895999999756e-08
7.138013219737281361e+03,4.028746883999999861e-08
7.139309356692398978e+03,4.156917362999999681e-08
7.140605493647515686e+03,4.288978403000000072e-08
7.141901630602633304e+03,4.425042035000000001e-08
7.143197767557750922e+03,4.565223330000000068e-08
7.144493904512868539e+03,4.709640471000000013e-08
7.145790041467985247e+03,4.858414836999999996e-08
7.147086178423102865e+03,5.011671079999999851e-08
7.148382315378220483e+03,5.169537207000000066e-08
7.149678452333337191e+03,5.332144666000000058e-08
7.150974589288454808e+03,5.499628430999999940e-08
7.152270726243572426e+03,5.672127092000000048e-08
7.153566863198690044e+03,5.849782941999999702e-08
7.154863000153806752e+03,6.032742071999999794e-08
7.156159137108924369e+03,6.221154464000000455e-08
7.157455274064041987e+03,6.415174087999999977e-08
7.158751411019158695e+03,6.614958998999999693e-08
7.160047547974276313e+03,6.820671441999999456e-08
7.161343684929393930e+03,7.032477949999999695e-08
7.162639821884511548e+03,7.250549453999999956e-08
7.163935958839628256e+03,7.475061388999999501e-08
7.165232095794745874e+03,7.706193802000000186e-08
7.166528232749863491e+03,7.944131471000000067e-08
7.167824369704980199e+03,8.189064014999999882e-08
7.169120506660097817e+03,8.441186010999999669e-08
7.170416643615215435e+03,8.700697122999999811e-08
7.171712780570333052e+03,8.967802213000000066e-08
7.173008917525449760e+03,9.242711478999999645e-08
7.174305054480567378e+03,9.525640574000000074e-08
7.175601191435684996e+03,9.816810745000000462e-08
7.176897328390802613e+03,1.011644896000000024e-07
7.178193465345919321e+03,1.042478806000000064e-07
7.179489602301036939e+03,1.074206688000000064e-07
7.180785739256154557e+03,1.106853040000000057e-07
7.182081876211271265e+03,1.140442991000000063e-07
7.183378013166388882e+03,1.175002311999999943e-07
7.184674150121506500e+03,1.210557434999999915e-07
7.185970287076624118e+03,1.247135468999999905e-07
7.187266424031740826e+03,1.284764211000000053e-07
7.188562560986858443e+03,1.323472167999999902e-07
7.189858697941976061e+03,1.363288572000000035e-07
7.191154834897093679e+03,1.404243393000000112e-07
7.192450971852210387e+03,1.446367364000000020e-07
7.193747108807328004e+03,1.489691992000000126e-07
7.195043245762445622e+03,1.534249579999999923e-07
7.196339382717562330e+03,1.580073244000000108e-07
7.197635519672679948e+03,1.627196932000000053e-07
7.198931656627797565e+03,1.675655444000000001e-07
7.200227793582915183e+03,1.725484453000000023e-07
7.201523930538031891e+03,1.776720521999999978e-07
7.202820067493149509e+03,1.829401125000000067e-07
7.204116204448267126e+03,1.883564672000000126e-07
7.205412341403383834e+03,1.939250527000000063e-07
7.206708478358501452e+03,1.996499030000000098e-07
7.208004615313619070e+03,2.055351521000000109e-07
7.209300752268736687e+03,2.115850360999999917e-07
7.210596889223853395e+03,2.178038958000000125e-07
7.211893026178971013e+03,2.241961788000000020e-07
7.213189163134088631e+03,2.307664420000000051e-07
7.214485300089206248e+03,2.375193542999999964e-07
7.215781437044322956e+03,2.444596987999999834e-07
7.217077573999440574e+03,2.515923757000000227e-07
7.218373710954558192e+03,2.589224047000000222e-07
7.219669847909674900e+03,2.664549276999999780e-07
7.220965984864792517e+03,2.741952118000000125e-07
7.222262121819910135e+03,2.821486518000000122e-07
7.223558258775027753e+03,2.903207732999999785e-07
7.224854395730144461e+03,2.987172354999999947e-07
7.226150532685262078e+03,3.073438341000000041e-07
7.227446669640379696e+03,3.162065045000000228e-07
7.228742806595497314e+03,3.253113247000000229e-07
7.230038943550614022e+03,3.346645189000000197e-07
7.231335080505731639e+03,3.442724599999999752e-07
7.232631217460849257e+03,3.541416735000000025e-07
7.233927354415965965e+03,3.642788408000000178e-07
7.235223491371083583e+03,3.746908022000000163e-07
7.236519628326201200e+03,3.853845608999999804e-07
7.237815765281318818e+03,3.963672861000000183e-07
7.239111902236435526e+03,4.076463170000000079e-07
7.240408039191553144e+03,4.192291662999999800e-07
7.241704176146670761e+03,4.311235239999999837e-07
7.243000313101787469e+03,4.433372613999999953e-07
7.244296450056905087e+03,4.558784347000000055e-07
7.245592587012022705e+03,4.687552892999999923e-07
7.246888723967140322e+03,4.819762638000000418e-07
7.248184860922257030e+03,4.955499941000000134e-07
7.249480997877374648e+03,5.094853174000000308e-07
7.250777134832492266e+03,5.237912772999999924e-07
7.252073271787608974e+03,5.384771271999999859e-07
7.253369408742726591e+03,5.535523353999999573e-07
7.254665545697844209e+03,5.690265896999999607e-07
7.255961682652961827e+03,5.849098016999999727e-07
7.257257819608078535e+03,6.012121117000000477e-07
7.258553956563196152e+03,6.179438938999999556e-07
7.259850093518313770e+03,6.351157605999999808e-07
7.261146230473431388e+03,6.527385678999999790e-07
7.262442367428548096e+03,6.708234204999999877e-07
7.263738504383665713e+03,6.893816768999999700e-07
7.265034641338783331e+03,7.084249546999999499e-07
7.266330778293900948e+03,7.279651363999999912e-07
7.267626915249017657e+03,7.480143741999999609e-07
7.268923052204135274e+03,7.685850962999999858e-07
7.270219189159252892e+03,7.896900123000000279e-07
7.271515326114369600e+03,8.113421189999999686e-07
7.272811463069487218e+03,8.335547062999999794e-07
7.274107600024604835e+03,8.563413635999999951e-07
7.275403736979722453e+03,8.797159855000000408e-07
7.276699873934839161e+03,9.036927782000000230e-07
7.277996010889956779e+03,9.282862661999999541e-07
7.279292147845074396e+03,9.535112982999999751e-07
7.280588284800191104e+03,9.793830544999999884e-07
7.281884421755308722e+03,1.005917052999999895e-06
7.283180558710426340e+03,1.033129155999999996e-06
7.284476695665543957e+03,1.061035577999999977e-06
7.285772832620660665e+03,1.089652891999999922e-06
7.287068969575778283e+03,1.118998038000000084e-06
7.288365106530895901e+03,1.149088329000000054e-06
7.289661243486012609e+03,1.179941457000000060e-06
7.290957380441130226e+03,1.211575504999999947e-06
7.292253517396247844e+03,1.244008951999999938e-06
7.293549654351365461e+03,1.277260679999999916e-06
7.294845791306482170e+03,1.311349984000000101e-06
7.296141928261599787e+03,1.346296578000000006e-06
7.297438065216717405e+03,1.382120608000000079e-06
7.298734202171835022e+03,1.418842654000000010e-06
7.300030339126951731e+03,1.456483744000000058e-06
7.301326476082069348e+03,1.495065357000000105e-06
7.302622613037186966e+03,1.534609440000000035e-06
7.303918749992303674e+03,1.575138409000000060e-06
7.305214886947421292e+03,1.616675164000000028e-06
7.306511023902538909e+03,1.659243095000000083e-06
7.307807160857656527e+03,1.702866092000000066e-06
7.309103297812773235e+03,1.747568556000000080e-06
7.310399434767890853e+03,1.793375408999999899e-06
7.311695571723008470e+03,1.840312100999999938e-06
7.312991708678126088e+03,1.888404624000000040e-06
7.314287845633242796e+03,1.937679520999999821e-06
7.315583982588360414e+03,1.988163893000000076e-06
7.316880119543478031e+03,2.039885417999999986e-06
7.318176256498594739e+03,2.092872351000000084e-06
7.319472393453712357e+03,2.147153545999999793e-06
7.320768530408829974e+03,2.202758458000000189e-06
7.322064667363947592e+03,2.259717161000000039e-06
7.323360804319064300e+03,2.318060356000000067e-06
7.324656941274181918e+03,2.377819382000000134e-06
7.325953078229299535e+03,2.439026232000000146e-06
7.327249215184416244e+03,2.501713562999999875e-06
7.328545352139533861e+03,2.565914706000000056e-06
7.329841489094651479e+03,2.631663681999999905e-06
7.331137626049769096e+03,2.698995214000000123e-06
7.332433763004885805e+03,2.767944737000000185e-06
7.333729899960003422e+03,2.838548414999999985e-06
7.335026036915121040e+03,2.910843151999999983e-06
7.336322173870238657e+03,2.984866607999999997e-06
7.337618310825355366e+03,3.060657207000000071e-06
7.338914447780472983e+03,3.138254158999999927e-06
7.340210584735590601e+03,3.217697467999999835e-06
7.341506721690707309e+03,3.299027946000000035e-06
7.342802858645824926e+03,3.382287233999999853e-06
7.344098995600942544e+03,3.467517808999999957e-06
7.345395132556060162e+03,3.554763005000000203e-06
7.346691269511176870e+03,3.644067021999999990e-06
7.347987406466294487e+03,3.735474950000000040e-06
7.349283543421412105e+03,3.829032773999999769e-06
7.350579680376529723e+03,3.924787398999999811e-06
7.351875817331646431e+03,4.022786661999999947e-06
7.353171954286764048e+03,4.123079347000000111e-06
7.354468091241881666e+03,4.225715203999999718e-06
7.355764228196998374e+03,4.330744965000000262e-06
7.357060365152115992e+03,4.438220358999999972e-06
7.358356502107233609e+03,4.548194132999999711e-06
7.359652639062351227e+03,4.660720065000000375e-06
7.360948776017467935e+03,4.775852984000000005e-06
7.362244912972585553e+03,4.893648788999999885e-06
7.363541049927703170e+03,5.014164460999999931e-06
7.364837186882819879e+03,5.137458091000000063e-06
7.366133323837937496e+03,5.263588890000000029e-06
7.367429460793055114e+03,5.392617208999999898e-06
7.368725597748172731e+03,5.524604561999999831e-06
7.370021734703289439e+03,5.659613640999999814e-06
7.371317871658407057e+03,5.797708337999999953e-06
7.372614008613524675e+03,5.938953763000000322e-06
7.373910145568641383e+03,6.083416260999999654e-06
7.375206282523759000e+03,6.231163438999999776e-06
7.376502419478876618e+03,6.382264178999999624e-06
7.377798556433994236e+03,6.536788662000000411e-06
7.379094693389110944e+03,6.694808388999999668e-06
7.380390830344228561e+03,6.856396199000000412e-06
7.381686967299346179e+03,7.021626290999999585e-06
7.382983104254463797e+03,7.190574246999999676e-06
7.384279241209580505e+03,7.363317050000000100e-06
7.385575378164698122e+03,7.539933109000000153e-06
7.386871515119815740e+03,7.720502276999999711e-06
7.388167652074933358e+03,7.905105877000000804e-06
7.389463789030050066e+03,8.093826718000000055e-06
7.390759925985167683e+03,8.286749125000000008e-06
7.392056062940285301e+03,8.483958954000000397e-06
7.393352199895402009e+03,8.685543619000000043e-06
7.394648336850519627e+03,8.891592111999999893e-06
7.395944473805637244e+03,9.102195027999999188e-06
7.397240610760754862e+03,9.317444583999999878e-06
7.398536747715871570e+03,9.537434648999999320e-06
7.399832884670989188e+03,9.762260757999999852e-06
7.401129021626106805e+03,9.992020144000000444e-06
7.402425158581223513e+03,1.022681175000000055e-05
7.403721295536341131e+03,1.046673626999999974e-05
7.405017432491458749e+03,1.071189615999999950e-05
7.406313569446576366e+03,1.096239564000000056e-05
7.407609706401693074e+03,1.121834077999999993e-05
7.408905843356810692e+03,1.147983946000000018e-05
7.410201980311928310e+03,1.174700141000000018e-05
7.411498117267045018e+03,1.201993825999999934e-05
7.412794254222162635e+03,1.229876352999999951e-05
7.414090391177280253e+03,1.258359269000000048e-05
7.415386528132397871e+03,1.287454313000000054e-05
7.416682665087514579e+03,1.317173424000000014e-05
7.417978802042632196e+03,1.347528739000000060e-05
7.419274938997749814e+03,1.378532598999999959e-05
7.420571075952867432e+03,1.410197547000000000e-05
7.421867212907984140e+03,1.442536335000000023e-05
7.423163349863101757e+03,1.475561922999999947e-05
7.424459486818219375e+03,1.509287482000000051e-05
7.425755623773336083e+03,1.543726396000000097e-05
7.427051760728453701e+03,1.578892265999999933e-05
7.428347897683571318e+03,1.614798908000000043e-05
7.429644034638688936e+03,1.651460362000000025e-05
7.430940171593805644e+03,1.688890887000000040e-05
7.432236308548923262e+03,1.727104966000000047e-05
7.433532445504040879e+03,1.766117309000000084e-05
7.434828582459158497e+03,1.805942854999999900e-05
7.436124719414275205e+03,1.846596770999999986e-05
7.437420856369392823e+03,1.888094457000000131e-05
7.438716993324510440e+03,1.930451547000000084e-05
7.440013130279627148e+03,1.973683909999999876e-05
7.441309267234744766e+03,2.017807652000000121e-05
7.442605404189862384e+03,2.062839116999999966e-05
7.443901541144980001e+03,2.108794892000000057e-05
7.445197678100096709e+03,2.155691803999999876e-05
7.446493815055214327e+03,2.203546923000000059e-05
7.447789952010331945e+03,2.252377564999999979e-05
7.449086088965448653e+03,2.302201291000000128e-05
7.450382225920566270e+03,2.353035909000000052e-05
7.451678362875683888e+03,2.404899475000000028e-05
7.452974499830801506e+03,2.457810295000000011e-05
7.454270636785918214e+03,2.511786923999999991e-05
7.455566773741035831e+03,2.566848166999999975e-05
7.456862910696153449e+03,2.623013081999999937e-05
7.458159047651271067e+03,2.680300975999999884e-05
7.459455184606387775e+03,2.738731411000000092e-05
7.460751321561505392e+03,2.798324198999999838e-05
7.462047458516623010e+03,2.859099404000000076e-05
7.463343595471739718e+03,2.921077344000000013e-05
7.464639732426857336e+03,2.984278585999999907e-05
7.465935869381974953e+03,3.048723950999999963e-05
7.467232006337092571e+03,3.114434508999999745e-05
7.468528143292209279e+03,3.181431579000000207e-05
7.469824280247326897e+03,3.249736732000000250e-05
7.471120417202444514e+03,3.319371783999999900e-05
7.472416554157562132e+03,3.390358797999999929e-05
7.473712691112678840e+03,3.462720079999999893e-05
7.475008828067796458e+03,3.536478181999999778e-05
7.476304965022914075e+03,3.611655894000000133e-05
7.477601101978030783e+03,3.688276244000000044e-05
7.478897238933148401e+03,3.766362497999999840e-05
7.480193375888266019e+03,3.845938151000000236e-05
7.481489512843383636e+03,3.927026931999999873e-05
7.482785649798500344e+03,4.009652794000000240e-05
7.484081786753617962e+03,4.093839910000000317e-05
7.485377923708735580e+03,4.179612676999999900e-05
7.486674060663852288e+03,4.266995701000000197e-05
7.487970197618969905e+03,4.356013800000000053e-05
7.489266334574087523e+03,4.446691996999999795e-05
