# E [eV], Intensity
6.671190301481947245e+03,1.771596254999999976e-07
6.673441214719385243e+03,1.912225625999999874e-07
6.675692127956824152e+03,2.050892231000000010e-07
6.677943041194262150e+03,2.186295521999999991e-07
6.680193954431700149e+03,2.317264006000000118e-07
6.682444867669138148e+03,2.442788332000000062e-07
6.684695780906577056e+03,2.562045746000000235e-07
6.686946694144015055e+03,2.674415027000000055e-07
6.689197607381453054e+03,2.779481700000000030e-07
6.691448520618891962e+03,2.877033948000000055e-07
6.693699433856329961e+03,2.967050228999999914e-07
6.695950347093767959e+03,3.049680018000000253e-07
6.698201260331205958e+03,3.125219418999999774e-07
6.700452173568644866e+03,3.194083493999999993e-07
6.702703086806082865e+03,3.256777172000000088e-07
6.704954000043520864e+03,3.313866450000000106e-07
6.707204913280958863e+03,3.365951308999999813e-07
6.709455826518397771e+03,3.413641506999999921e-07
6.711706739755835770e+03,3.457536005000000202e-07
6.713957652993273769e+03,3.498206465000000076e-07
6.716208566230712677e+03,3.536184914999999933e-07
6.718459479468150676e+03,3.571955422000000140e-07
6.720710392705588674e+03,3.605949389999999977e-07
6.722961305943026673e+03,3.638543971000000027e-07
6.725212219180465581e+03,3.670062989000000019e-07
6.727463132417903580e+03,3.700779782000000032e-07
6.729714045655341579e+03,3.730921349999999768e-07
6.731964958892780487e+03,3.760673313000000230e-07
6.734215872130218486e+03,3.790185223000000122e-07
6.736466785367656485e+03,3.819575883000000108e-07
6.738717698605094483e+03,3.848938410999999795e-07
6.740968611842533392e+03,3.878344890999999993e-07
6.743219525079971390e+03,3.907850478999999822e-07
6.745470438317409389e+03,3.937496958999999762e-07
6.747721351554848297e+03,3.967203783999999964e-07
6.749972264792286296e+03,3.997113368000000130e-07
6.752223178029724295e+03,4.027270068000000124e-07
6.754474091267162294e+03,4.057676105999999958e-07
6.756725004504601202e+03,4.088333731000000169e-07
6.758975917742039201e+03,4.119245211000000088e-07
6.761226830979477199e+03,4.150412837999999984e-07
6.763477744216915198e+03,4.181838927999999999e-07
6.765728657454354106e+03,4.213525819999999936e-07
6.767979570691792105e+03,4.245475877000000002e-07
6.770230483929230104e+03,4.277691486999999966e-07
6.772481397166669012e+03,4.310175062000000001e-07
6.774732310404107011e+03,4.342929040000000057e-07
6.776983223641545010e+03,4.375955882999999959e-07
6.779234136878983009e+03,4.409258080000000054e-07
6.781485050116421917e+03,4.442838142999999820e-07
6.783735963353859916e+03,4.476698611999999999e-07
6.785986876591297914e+03,4.510842051000000152e-07
6.788237789828736823e+03,4.545271052000000047e-07
6.790488703066174821e+03,4.579988230000000169e-07
6.792739616303612820e+03,4.614996226999999938e-07
6.794990529541050819e+03,4.650297711000000138e-07
6.797241442778489727e+03,4.685895375999999742e-07
6.799492356015927726e+03,4.721791940999999931e-07
6.801743269253365725e+03,4.757990151999999761e-07
6.803994182490804633e+03,4.794492781999999868e-07
6.806245095728242632e+03,4.831302628000000232e-07
6.808496008965680630e+03,4.868422516999999887e-07
6.810746922203118629e+03,4.905855301999999757e-07
6.812997835440557537e+03,4.943603862999999703e-07
6.815248748677995536e+03,4.981671108000000319e-07
6.817499661915433535e+03,5.020059974000000509e-07
6.819750575152871534e+03,5.058773428000000340e-07
6.822001488390310442e+03,5.097814463000000188e-07
6.824252401627748441e+03,5.137186104999999594e-07
6.826503314865186439e+03,5.176891407000000210e-07
6.828754228102625348e+03,5.216933454999999678e-07
6.831005141340063346e+03,5.257315364999999984e-07
6.833256054577501345e+03,5.298040282000000361e-07
6.835506967814939344e+03,5.339111384000000265e-07
6.837757881052378252e+03,5.380531883000000126e-07
6.840008794289816251e+03,5.422305019999999736e-07
6.842259707527254250e+03,5.464434069000000171e-07
6.844510620764693158e+03,5.506922338000000303e-07
6.846761534002131157e+03,5.549773168000000286e-07
6.849012447239569155e+03,5.592989931999999757e-07
6.851263360477007154e+03,5.636576038999999752e-07
6.853514273714446063e+03,5.680534932000000161e-07
6.855765186951884061e+03,5.724870087000000041e-07
6.858016100189322060e+03,5.769585016999999536e-07
6.860267013426760968e+03,5.814683268999999760e-07
6.862517926664198967e+03,5.860168426999999738e-07
6.864768839901636966e+03,5.906044110000000209e-07
6.867019753139074965e+03,5.952313974999999511e-07
6.869270666376513873e+03,5.998981716000000244e-07
6.871521579613951872e+03,6.046051065000000487e-07
6.873772492851389870e+03,6.093525789999999721e-07
6.876023406088828779e+03,6.141409698999999689e-07
6.878274319326266777e+03,6.189706640000000162e-07
6.880525232563704776e+03,6.238420500000000312e-07
6.882776145801142775e+03,6.287555203000000395e-07
6.885027059038581683e+03,6.337114716999999560e-07
6.887277972276019682e+03,6.387103048999999531e-07
6.889528885513457681e+03,6.437524246000000059e-07
6.891779798750895679e+03,6.488382398999999785e-07
6.894030711988334588e+03,6.539681637999999926e-07
6.896281625225772586e+03,6.591426136999999529e-07
6.898532538463210585e+03,6.643620112000000335e-07
6.900783451700649493e+03,6.696267822000000113e-07
6.903034364938087492e+03,6.749373568000000382e-07
6.905285278175525491e+03,6.802941693999999748e-07
6.907536191412963490e+03,6.856976591000000056e-07
6.909787104650402398e+03,6.911482689000000437e-07
6.912038017887840397e+03,6.966464465999999769e-07
6.914288931125278395e+03,7.021926441999999626e-07
6.916539844362717304e+03,7.077873185999999959e-07
6.918790757600155302e+03,7.134309306999999806e-07
6.921041670837593301e+03,7.191239465000000188e-07
6.923292584075031300e+03,7.248668363999999958e-07
6.925543497312470208e+03,7.306600756999999523e-07
6.927794410549908207e+03,7.365041441999999982e-07
6.930045323787346206e+03,7.423995268999999871e-07
6.932296237024784205e+03,7.483467135999999592e-07
6.934547150262223113e+03,7.543461992000000474e-07
6.936798063499661112e+03,7.603984834000000423e-07
6.939048976737099110e+03,7.665040717000000304e-07
6.941299889974538019e+03,7.726634742000000304e-07
6.943550803211976017e+03,7.788772068000000397e-07
6.945801716449414016e+03,7.851457906999999796e-07
6.948052629686852015e+03,7.914697525999999502e-07
6.950303542924290923e+03,7.978496246000000499e-07
6.952554456161728922e+03,8.042859446000000383e-07
6.954805369399166921e+03,8.107792562000000026e-07
6.957056282636605829e+03,8.173301087000000401e-07
6.959307195874043828e+03,8.239390572000000153e-07
6.961558109111481826e+03,8.306066626999999513e-07
6.963809022348919825e+03,8.373334918999999874e-07
6.966059935586358733e+03,8.441201180000000219e-07
6.968310848823796732e+03,8.509671195999999513e-07
6.970561762061234731e+03,8.578750819000000350e-07
6.972812675298673639e+03,8.648445961000000246e-07
6.975063588536111638e+03,8.718762594999999799e-07
6.977314501773549637e+03,8.789706757999999626e-07
6.979565415010987635e+03,8.861284551000000364e-07
6.981816328248426544e+03,8.933502138999999497e-07
6.984067241485864542e+03,9.006365750999999820e-07
6.986318154723302541e+03,9.079881682000000345e-07
6.988569067960741449e+03,9.154056294999999908e-07
6.990819981198179448e+03,9.228896018999999913e-07
6.993070894435617447e+03,9.304407349999999784e-07
6.995321807673055446e+03,9.380596854000000258e-07
6.997572720910494354e+03,9.457471166000000520e-07
6.999823634147932353e+03,9.535036991000000012e-07
7.002074547385370352e+03,9.613301105999999918e-07
7.004325460622809260e+03,9.692270358999999245e-07
7.006576373860247259e+03,9.771951669000000115e-07
7.008827287097685257e+03,9.852352031999999532e-07
7.011078200335123256e+03,9.933478515999999416e-07
7.013329113572562164e+03,1.001533825999999951e-06
7.015580026810000163e+03,1.009793849999999981e-06
7.017830940047438162e+03,1.018128650999999896e-06
7.020081853284876161e+03,1.026538967000000044e-06
7.022332766522315069e+03,1.035025543999999954e-06
7.024583679759753068e+03,1.043589134000000025e-06
7.026834592997191066e+03,1.052230499000000056e-06
7.029085506234629975e+03,1.060950409000000088e-06
7.031336419472067973e+03,1.069749639000000074e-06
7.033587332709505972e+03,1.078628976999999907e-06
7.035838245946943971e+03,1.087589216000000028e-06
7.038089159184382879e+03,1.096631159000000068e-06
7.040340072421820878e+03,1.105755618000000009e-06
7.042590985659258877e+03,1.114963411000000064e-06
7.044841898896696875e+03,1.124255368999999966e-06
7.047092812134135784e+03,1.133632327999999995e-06
7.049343725371573782e+03,1.143095136000000050e-06
7.051594638609011781e+03,1.152644647999999950e-06
7.053845551846450689e+03,1.162281730000000084e-06
7.056096465083888688e+03,1.172007254999999913e-06
7.058347378321326687e+03,1.181822108999999899e-06
7.060598291558764686e+03,1.191727184000000100e-06
7.062849204796203594e+03,1.201723383000000086e-06
7.065100118033641593e+03,1.211811620999999895e-06
7.067351031271079592e+03,1.221992819999999905e-06
7.069601944508518500e+03,1.232267913999999907e-06
7.071852857745956499e+03,1.242637844999999927e-06
7.074103770983394497e+03,1.253103567000000040e-06
7.076354684220832496e+03,1.263666045000000039e-06
7.078605597458271404e+03,1.274326251999999960e-06
7.080856510695709403e+03,1.285085173999999992e-06
7.083107423933147402e+03,1.295943806999999936e-06
7.085358337170586310e+03,1.306903157000000053e-06
7.087609250408024309e+03,1.317964240999999903e-06
7.089860163645462308e+03,1.329128089000000047e-06
7.092111076882900306e+03,1.340395739999999911e-06
7.094361990120339215e+03,1.351768245000000027e-06
7.096612903357777213e+03,1.363246666999999908e-06
7.098863816595215212e+03,1.374832078999999954e-06
7.101114729832654120e+03,1.386525567000000081e-06
7.103365643070092119e+03,1.398328229000000036e-06
7.105616556307530118e+03,1.410241175000000034e-06
7.107867469544968117e+03,1.422265524999999903e-06
7.110118382782407025e+03,1.434402414000000055e-06
7.112369296019845024e+03,1.446652987999999987e-06
7.114620209257283022e+03,1.459018405000000088e-06
7.116871122494721931e+03,1.471499836999999953e-06
7.119122035732159929e+03,1.484098468999999960e-06
7.121372948969597928e+03,1.496815497000000003e-06
7.123623862207035927e+03,1.509652131000000023e-06
7.125874775444474835e+03,1.522609595999999911e-06
7.128125688681912834e+03,1.535689127000000018e-06
7.130376601919350833e+03,1.548891976999999914e-06
7.132627515156788832e+03,1.562219407999999939e-06
7.134878428394227740e+03,1.575672700999999978e-06
7.137129341631665739e+03,1.589253144999999941e-06
7.139380254869103737e+03,1.602962049000000023e-06
7.141631168106542646e+03,1.616800734000000041e-06
7.143882081343980644e+03,1.630770533999999962e-06
7.146132994581418643e+03,1.644872801000000034e-06
7.148383907818856642e+03,1.659108898999999909e-06
7.150634821056295550e+03,1.673480209999999942e-06
7.152885734293733549e+03,1.687988127999999896e-06
7.155136647531171548e+03,1.702634065000000022e-06
7.157387560768610456e+03,1.717419448000000098e-06
7.159638474006048455e+03,1.732345719999999957e-06
7.161889387243486453e+03,1.747414339000000018e-06
7.164140300480924452e+03,1.762626780999999918e-06
7.166391213718363360e+03,1.777984537999999987e-06
7.168642126955801359e+03,1.793489117999999978e-06
7.170893040193239358e+03,1.809142046000000023e-06
7.173143953430677357e+03,1.824944863000000099e-06
7.175394866668116265e+03,1.840899130999999945e-06
7.177645779905554264e+03,1.857006425999999983e-06
7.179896693142992262e+03,1.873268342000000065e-06
7.182147606380431171e+03,1.889686492000000009e-06
7.184398519617869169e+03,1.906262506999999907e-06
7.186649432855307168e+03,1.922998036000000129e-06
7.188900346092745167e+03,1.939894746000000052e-06
7.191151259330184075e+03,1.956954323999999973e-06
7.193402172567622074e+03,1.974178475000000040e-06
7.195653085805060073e+03,1.991568923000000155e-06
7.197903999042498981e+03,2.009127411999999868e-06
7.200154912279936980e+03,2.026855703999999854e-06
7.202405825517374979e+03,2.044755582999999807e-06
7.204656738754812977e+03,2.062828852000000021e-06
7.206907651992251886e+03,2.081077334000000015e-06
7.209158565229689884e+03,2.099502873000000125e-06
7.211409478467127883e+03,2.118107332000000015e-06
7.213660391704566791e+03,2.136892597999999861e-06
7.215911304942004790e+03,2.155860577000000011e-06
7.218162218179442789e+03,2.175013198000000158e-06
7.220413131416880788e+03,2.194352409000000168e-06
7.222664044654319696e+03,2.213880183999999790e-06
7.224914957891757695e+03,2.233598517000000116e-06
7.227165871129195693e+03,2.253509423999999989e-06
7.229416784366634602e+03,2.273614945999999931e-06
7.231667697604072600e+03,2.293917145999999907e-06
7.233918610841510599e+03,2.314418110999999971e-06
7.236169524078948598e+03,2.335119951999999840e-06
7.238420437316387506e+03,2.356024804000000165e-06
7.240671350553825505e+03,2.377134825000000090e-06
7.242922263791263504e+03,2.398452199999999814e-06
7.245173177028702412e+03,2.419979138999999942e-06
7.247424090266140411e+03,2.441717874999999997e-06
7.249675003503578409e+03,2.463670668000000131e-06
7.251925916741016408e+03,2.485839804999999852e-06
7.254176829978455316e+03,2.508227597999999923e-06
7.256427743215893315e+03,2.530836386000000042e-06
7.258678656453331314e+03,2.553668534000000210e-06
7.260929569690769313e+03,2.576726435000000110e-06
7.263180482928208221e+03,2.600012509999999946e-06
7.265431396165646220e+03,2.623529207000000129e-06
7.267682309403084219e+03,2.647279002999999797e-06
7.269933222640522217e+03,2.671264401000000088e-06
7.272184135877961126e+03,2.695487937000000039e-06
7.274435049115399124e+03,2.719952172999999836e-06
7.276685962352837123e+03,2.744659701999999886e-06
7.278936875590276031e+03,2.769613146000000172e-06
7.281187788827714030e+03,2.794815158000000046e-06
7.283438702065152029e+03,2.820268421999999928e-06
7.285689615302590028e+03,2.845975652000000134e-06
7.287940528540028936e+03,2.871939595000000146e-06
7.290191441777466935e+03,2.898163026999999869e-06
7.292442355014904933e+03,2.924648757999999968e-06
7.294693268252343842e+03,2.951399633000000070e-06
7.296944181489781840e+03,2.978418524000000004e-06
7.299195094727219839e+03,3.005708343000000169e-06
7.301446007964657838e+03,3.033272031000000117e-06
7.303696921202096746e+03,3.061112565999999851e-06
7.305947834439534745e+03,3.089232957999999913e-06
7.308198747676972744e+03,3.117636254000000027e-06
7.310449660914411652e+03,3.146325537999999945e-06
7.312700574151849651e+03,3.175303925000000061e-06
7.314951487389287649e+03,3.204574571999999864e-06
7.317202400626725648e+03,3.234140667999999803e-06
7.319453313864164556e+03,3.264005442999999950e-06
7.321704227101602555e+03,3.294172162000000183e-06
7.323955140339040554e+03,3.324644130000000103e-06
7.326206053576479462e+03,3.355424690000000084e-06
7.328456966813917461e+03,3.386517223999999902e-06
7.330707880051355460e+03,3.417925153999999899e-06
7.332958793288793458e+03,3.449651943000000037e-06
7.335209706526232367e+03,3.481701092000000205e-06
7.337460619763670366e+03,3.514076146000000027e-06
7.339711533001108364e+03,3.546780691000000018e-06
7.341962446238547273e+03,3.579818355000000210e-06
7.344213359475985271e+03,3.613192809000000049e-06
7.346464272713423270e+03,3.646907766000000192e-06
7.348715185950861269e+03,3.680966985999999879e-06
7.350966099188300177e+03,3.715374271999999882e-06
7.353217012425738176e+03,3.750133469999999966e-06
7.355467925663176175e+03,3.785248474999999964e-06
7.357718838900615083e+03,3.820723225999999873e-06
7.359969752138053082e+03,3.856561709999999862e-06
7.362220665375491080e+03,3.892767960000000054e-06
7.364471578612929079e+03,3.929346057000000325e-06
7.366722491850367987e+03,3.966300132999999993e-06
7.368973405087805986e+03,4.003634365000000129e-06
7.371224318325243985e+03,4.041352981999999873e-06
7.373475231562682893e+03,4.079460263000000030e-06
7.375726144800120892e+03,4.117960536000000207e-06
7.377977058037558891e+03,4.156858183999999892e-06
7.380227971274996889e+03,4.196157637999999593e-06
7.382478884512435798e+03,4.235863383000000228e-06
7.384729797749873796e+03,4.275979957999999733e-06
7.386980710987311795e+03,4.316511954000000045e-06
7.389231624224749794e+03,4.357464019000000236e-06
7.391482537462188702e+03,4.398840854000000313e-06
7.393733450699626701e+03,4.440647215999999638e-06
7.395984363937064700e+03,4.482887918999999792e-06
7.398235277174502698e+03,4.525567834000000340e-06
7.400486190411941607e+03,4.568691891000000318e-06
7.402737103649379605e+03,4.612265075999999814e-06
7.404988016886817604e+03,4.656292435999999877e-06
7.407238930124256512e+03,4.700779077999999657e-06
7.409489843361694511e+03,4.745730170000000113e-06
7.411740756599132510e+03,4.791150940999999779e-06
7.413991669836570509e+03,4.837046682000000165e-06
7.416242583074009417e+03,4.883422747000000154e-06
7.418493496311447416e+03,4.930284555000000026e-06
7.420744409548885415e+03,4.977637589000000296e-06
7.422995322786324323e+03,5.025487397999999810e-06
7.425246236023762322e+03,5.073839595000000189e-06
7.427497149261200320e+03,5.122699863999999605e-06
7.429748062498638319e+03,5.172073954000000172e-06
7.431998975736077227e+03,5.221967684000000235e-06
7.434249888973515226e+03,5.272386943000000297e-06
7.436500802210953225e+03,5.323337689999999635e-06
7.438751715448392133e+03,5.374825956999999801e-06
7.441002628685830132e+03,5.426857846000000270e-06
7.443253541923268131e+03,5.479439534000000052e-06
7.445504455160706129e+03,5.532577273000000226e-06
7.447755368398145038e+03,5.586277389999999709e-06
7.450006281635583036e+03,5.640546287000000336e-06
7.452257194873021035e+03,5.695390445999999997e-06
7.454508108110459943e+03,5.750816423000000029e-06
7.456759021347897942e+03,5.806830857999999954e-06
7.459009934585335941e+03,5.863440468000000315e-06
7.461260847822773940e+03,5.920652053000000367e-06
7.463511761060212848e+03,5.978472495000000301e-06
7.465762674297650847e+03,6.036908758999999863e-06
7.468013587535088845e+03,6.095967896000000175e-06
7.470264500772527754e+03,6.155657040000000220e-06
7.472515414009965752e+03,6.215983413000000150e-06
7.474766327247403751e+03,6.276954324999999590e-06
7.477017240484841750e+03,6.338577175999999971e-06
7.479268153722280658e+03,6.400859451999999862e-06
7.481519066959718657e+03,6.463808734000000399e-06
7.483769980197156656e+03,6.527432693000000291e-06
7.486020893434595564e+03,6.591739093000000174e-06
7.488271806672033563e+03,6.656735795999999980e-06
7.490522719909471562e+03,6.722430753999999755e-06
7.492773633146909560e+03,6.788832019999999807e-06
7.495024546384348469e+03,6.855947744999999739e-06
7.497275459621786467e+03,6.923786176000000351e-06
7.499526372859224466e+03,6.992355662999999957e-06
7.501777286096662465e+03,7.061664657999999994e-06
7.504028199334101373e+03,7.131721716000000261e-06
7.506279112571539372e+03,7.202535494000000291e-06
7.508530025808977371e+03,7.274114756999999586e-06
7.510780939046415369e+03,7.346468376999999836e-06
7.513031852283854278e+03,7.419605332999999837e-06
7.515282765521292276e+03,7.493534715000000163e-06
7.517533678758730275e+03,7.568265725000000103e-06
7.519784591996169183e+03,7.643807676000000722e-06
7.522035505233607182e+03,7.720169994000000425e-06
7.524286418471045181e+03,7.797362224999999748e-06
7.526537331708483180e+03,7.875394025999999311e-06
7.528788244945922088e+03,7.954275178000000607e-06
7.531039158183360087e+03,8.034015579000000366e-06
7.533290071420798085e+03,8.114625249000000630e-06
7.535540984658236994e+03,8.196114331000000605e-06
7.537791897895674992e+03,8.278493093000000694e-06
7.540042811133112991e+03,8.361771928000000798e-06
7.542293724370550990e+03,8.445961359000000231e-06
7.544544637607989898e+03,8.531072034999999824e-06
7.546795550845427897e+03,8.617114739999999731e-06
7.549046464082865896e+03,8.704100386000000573e-06
7.551297377320304804e+03,8.792040024000000192e-06
7.553548290557742803e+03,8.880944836999999872e-06
7.555799203795180802e+03,8.970826148000000136e-06
7.558050117032618800e+03,9.061695419000000422e-06
7.560301030270057709e+03,9.153564251999999406e-06
7.562551943507495707e+03,9.246444392999999675e-06
7.564802856744933706e+03,9.340347732999999575e-06
7.567053769982372614e+03,9.435286307999999993e-06
